Date,Open,High,Low,Close,Adj Close,Volume,Date
2020-01-02,115.5,116.4800033569336,112.93000030517578,113.68000030517578,109.1385269165039,362700,2020-01-02
2020-01-03,112.80999755859375,114.83999633789062,112.80999755859375,114.04000091552734,109.48414611816406,221500,2020-01-03
2020-01-06,113.66000366210938,114.48999786376953,113.55999755859375,114.05000305175781,109.4937515258789,282400,2020-01-06
2020-01-07,113.55999755859375,114.01000213623047,112.73999786376953,112.91000366210938,108.39928436279297,234700,2020-01-07
2020-01-08,113.08000183105469,114.18000030517578,113.08000183105469,113.22000122070312,108.6968994140625,331000,2020-01-08
2020-01-09,113.7699966430664,115.05999755859375,113.31999969482422,114.66000366210938,110.07938385009766,329100,2020-01-09
2020-01-10,114.66000366210938,116.16999816894531,114.56999969482422,115.79000091552734,111.16423797607422,196800,2020-01-10
2020-01-13,115.48999786376953,116.55999755859375,115.37000274658203,116.19999694824219,111.55784606933594,248500,2020-01-13
2020-01-14,116.25,116.31999969482422,115.13999938964844,116.12999725341797,111.49063873291016,160800,2020-01-14
2020-01-15,116.31999969482422,117.2300033569336,115.9000015258789,116.70999908447266,112.04747772216797,241500,2020-01-15
2020-01-16,117.20999908447266,118.2699966430664,117.18000030517578,118.22000122070312,113.49715423583984,187300,2020-01-16
2020-01-17,118.30999755859375,118.61000061035156,117.05999755859375,117.31999969482422,112.63311004638672,190600,2020-01-17
2020-01-21,116.66000366210938,116.7699966430664,115.3499984741211,115.62999725341797,111.01061248779297,189300,2020-01-21
2020-01-22,115.69000244140625,116.43000030517578,115.4800033569336,115.66999816894531,111.04901885986328,141800,2020-01-22
2020-01-23,115.33000183105469,119.0199966430664,114.7699966430664,117.37000274658203,112.68110656738281,301000,2020-01-23
2020-01-24,117.4000015258789,118.16000366210938,116.62000274658203,117.12000274658203,112.44110107421875,213000,2020-01-24
2020-01-27,115.54000091552734,117.26000213623047,115.22000122070312,116.48999786376953,111.83627319335938,239100,2020-01-27
2020-01-28,116.41000366210938,116.58000183105469,115.56999969482422,115.97000122070312,111.68218231201172,178600,2020-01-28
2020-01-29,115.91000366210938,117.08000183105469,115.52999877929688,115.94000244140625,111.65328216552734,211200,2020-01-29
2020-01-30,115.0199966430664,117.01000213623047,114.33000183105469,116.54000091552734,112.2311019897461,153200,2020-01-30
2020-01-31,115.91000366210938,116.38999938964844,115.13999938964844,115.51000213623047,111.23919677734375,300700,2020-01-31
2020-02-03,115.61000061035156,117.54000091552734,115.51000213623047,117.23999786376953,112.90522766113281,271300,2020-02-03
2020-02-04,117.79000091552734,118.48999786376953,116.19999694824219,116.94999694824219,112.62593078613281,313700,2020-02-04
2020-02-05,117.13999938964844,118.29000091552734,116.75,117.87000274658203,113.5119400024414,188100,2020-02-05
2020-02-06,118.05000305175781,118.94999694824219,117.45999908447266,117.52999877929688,113.18450164794922,247800,2020-02-06
2020-02-07,117.06999969482422,117.68000030517578,116.22000122070312,116.69999694824219,112.38516998291016,144500,2020-02-07
2020-02-10,116.41999816894531,117.0999984741211,115.4800033569336,115.80000305175781,111.5184555053711,142600,2020-02-10
2020-02-11,116.0199966430664,116.88999938964844,115.4000015258789,116.05000305175781,111.75923156738281,197600,2020-02-11
2020-02-12,116.12999725341797,116.20999908447266,114.30000305175781,114.70999908447266,110.4687728881836,448200,2020-02-12
2020-02-13,114.58000183105469,116.55000305175781,113.69000244140625,116.19999694824219,111.90367889404297,200400,2020-02-13
2020-02-14,116.5999984741211,117.75,116.16999816894531,116.66999816894531,112.35629272460938,216800,2020-02-14
2020-02-18,116.47000122070312,116.62999725341797,115.08000183105469,115.26000213623047,110.9984359741211,271300,2020-02-18
2020-02-19,115.37000274658203,116.62000274658203,114.72000122070312,115.01000213623047,110.75768280029297,289200,2020-02-19
2020-02-20,114.61000061035156,115.66999816894531,113.73999786376953,114.93000030517578,110.6806411743164,378400,2020-02-20
2020-02-21,111.5199966430664,114.6500015258789,109.16000366210938,111.9800033569336,107.83970642089844,720600,2020-02-21
2020-02-24,110.5,111.20999908447266,109.16999816894531,109.20999908447266,105.172119140625,447900,2020-02-24
2020-02-25,109.22000122070312,109.56999969482422,106.70999908447266,106.94000244140625,102.98605346679688,641400,2020-02-25
2020-02-26,104.0,106.55999755859375,102.7699966430664,104.68000030517578,100.80961608886719,504500,2020-02-26
2020-02-27,103.4000015258789,104.76000213623047,101.94999694824219,102.4000015258789,98.61390686035156,670500,2020-02-27
2020-02-28,99.7300033569336,102.20999908447266,99.31999969482422,101.06999969482422,97.33308410644531,690800,2020-02-28
2020-03-02,101.62000274658203,103.76000213623047,100.80999755859375,103.58000183105469,99.75028991699219,331800,2020-03-02
2020-03-03,103.79000091552734,105.72000122070312,102.19999694824219,102.76000213623047,98.96060180664062,353300,2020-03-03
2020-03-04,105.38999938964844,107.62999725341797,104.44000244140625,107.44000244140625,103.46755981445312,294500,2020-03-04
2020-03-05,105.33999633789062,105.80000305175781,102.63999938964844,103.9800033569336,100.13548278808594,273800,2020-03-05
2020-03-06,101.61000061035156,107.41000366210938,101.33000183105469,107.30000305175781,103.3327407836914,624000,2020-03-06
2020-03-09,102.73999786376953,105.0,99.4800033569336,101.44999694824219,97.69903564453125,597100,2020-03-09
2020-03-10,103.5999984741211,103.98999786376953,99.38999938964844,103.98999786376953,100.1451187133789,522300,2020-03-10
2020-03-11,101.66999816894531,101.66999816894531,97.91999816894531,99.08000183105469,95.41666412353516,705800,2020-03-11
2020-03-12,92.4800033569336,96.4000015258789,87.5,94.4000015258789,90.90970611572266,843100,2020-03-12
2020-03-13,98.08000183105469,99.44000244140625,91.12000274658203,96.38999938964844,92.82613372802734,596000,2020-03-13
2020-03-16,87.4000015258789,94.4800033569336,87.4000015258789,87.87999725341797,84.63078308105469,667400,2020-03-16
2020-03-17,89.94999694824219,96.94999694824219,89.4800033569336,96.44999694824219,92.88389587402344,595700,2020-03-17
2020-03-18,91.69000244140625,96.9800033569336,90.33999633789062,96.75,93.17282104492188,762000,2020-03-18
2020-03-19,96.48999786376953,101.22000122070312,93.58999633789062,98.87999725341797,95.22405242919922,354700,2020-03-19
2020-03-20,98.80999755859375,99.9800033569336,89.12999725341797,92.51000213623047,89.08958435058594,727300,2020-03-20
2020-03-23,92.05999755859375,93.23999786376953,79.83999633789062,83.93000030517578,80.82682037353516,698800,2020-03-23
2020-03-24,87.2699966430664,88.31999969482422,82.69000244140625,88.05999755859375,84.8041000366211,535600,2020-03-24
2020-03-25,89.0,93.66000366210938,86.22000122070312,90.18000030517578,86.84573364257812,576200,2020-03-25
2020-03-26,90.8499984741211,97.33999633789062,90.22000122070312,96.19999694824219,92.64313507080078,447000,2020-03-26
2020-03-27,94.54000091552734,95.83999633789062,92.0999984741211,94.0,90.52449798583984,482000,2020-03-27
2020-03-30,94.97000122070312,100.95999908447266,94.37000274658203,100.4800033569336,96.76490783691406,435400,2020-03-30
2020-03-31,100.5199966430664,102.75,97.44000244140625,99.54000091552734,95.85964965820312,531000,2020-03-31
2020-04-01,97.70999908447266,98.68000030517578,95.44000244140625,96.20999908447266,92.65277862548828,296500,2020-04-01
2020-04-02,95.80999755859375,97.13999938964844,94.12000274658203,96.1500015258789,92.59500122070312,455700,2020-04-02
2020-04-03,94.87999725341797,97.41999816894531,93.36000061035156,94.19000244140625,90.70746612548828,370300,2020-04-03
2020-04-06,97.06999969482422,101.18000030517578,97.06999969482422,100.76000213623047,97.0345458984375,503200,2020-04-06
2020-04-07,103.55000305175781,103.55000305175781,99.22000122070312,101.12000274658203,97.38123321533203,378000,2020-04-07
2020-04-08,102.6500015258789,105.29000091552734,100.63999938964844,104.11000061035156,100.26068115234375,328500,2020-04-08
2020-04-09,105.04000091552734,108.02999877929688,104.2300033569336,107.2699966430664,103.30384063720703,399300,2020-04-09
2020-04-13,106.98999786376953,107.43000030517578,102.30000305175781,102.3499984741211,98.56576538085938,234000,2020-04-13
2020-04-14,104.55999755859375,105.37000274658203,103.36000061035156,104.0199966430664,100.17401123046875,239700,2020-04-14
2020-04-15,102.27999877929688,104.19000244140625,100.61000061035156,100.93000030517578,97.19828033447266,441400,2020-04-15
2020-04-16,103.02999877929688,103.02999877929688,99.68000030517578,101.8499984741211,98.08424377441406,294000,2020-04-16
2020-04-17,103.86000061035156,105.0199966430664,102.4000015258789,102.94000244140625,99.13394927978516,256200,2020-04-17
2020-04-20,101.86000061035156,107.94000244140625,101.12999725341797,106.94000244140625,102.98605346679688,856400,2020-04-20
2020-04-21,105.8499984741211,106.98999786376953,104.12000274658203,106.12000274658203,102.19636535644531,475500,2020-04-21
2020-04-22,106.98999786376953,107.04000091552734,104.12000274658203,106.30000305175781,102.36971282958984,436400,2020-04-22
2020-04-23,106.62000274658203,107.31999969482422,104.94999694824219,105.0199966430664,101.13703155517578,347600,2020-04-23
2020-04-24,105.41000366210938,105.41000366210938,103.08999633789062,104.12000274658203,100.27030944824219,377000,2020-04-24
2020-04-27,109.33000183105469,114.0999984741211,106.87999725341797,112.58000183105469,108.41751098632812,457700,2020-04-27
2020-04-28,112.5999984741211,114.66000366210938,110.98999786376953,111.18000030517578,107.41276550292969,274600,2020-04-28
2020-04-29,112.55999755859375,113.62999725341797,109.81999969482422,110.08000183105469,106.35002899169922,236600,2020-04-29
2020-04-30,108.98999786376953,110.06999969482422,106.33999633789062,107.08000183105469,103.45167541503906,730600,2020-04-30
2020-05-01,110.55999755859375,110.55999755859375,104.70999908447266,106.13999938964844,102.54354095458984,506200,2020-05-01
2020-05-04,105.52999877929688,107.33000183105469,105.08000183105469,106.80999755859375,103.19083404541016,324300,2020-05-04
2020-05-05,106.77999877929688,107.62999725341797,105.4000015258789,105.55999755859375,101.9831771850586,332500,2020-05-05
2020-05-06,106.7699966430664,107.05000305175781,104.76000213623047,104.86000061035156,101.3069076538086,234000,2020-05-06
2020-05-07,105.5199966430664,106.88999938964844,105.13999938964844,105.47000122070312,101.896240234375,285200,2020-05-07
2020-05-08,106.9800033569336,107.98999786376953,106.55999755859375,107.52999877929688,103.88643646240234,257000,2020-05-08
2020-05-11,106.66000366210938,107.51000213623047,106.08000183105469,106.30999755859375,102.70777893066406,344000,2020-05-11
2020-05-12,106.43000030517578,106.43000030517578,103.8499984741211,103.94999694824219,100.42774200439453,233300,2020-05-12
2020-05-13,103.38999938964844,103.38999938964844,101.6500015258789,102.41999816894531,98.94959259033203,267100,2020-05-13
2020-05-14,101.01000213623047,102.62000274658203,99.11000061035156,102.45999908447266,98.98823547363281,246200,2020-05-14
2020-05-15,101.47000122070312,101.69999694824219,100.05000305175781,101.5,98.06076049804688,476400,2020-05-15
2020-05-18,104.06999969482422,105.1500015258789,102.94999694824219,104.1500015258789,100.62096405029297,304500,2020-05-18
2020-05-19,103.79000091552734,105.75,103.16000366210938,103.7300033569336,100.21520233154297,214700,2020-05-19
2020-05-20,104.44999694824219,105.5199966430664,104.08000183105469,104.41000366210938,100.87215423583984,146200,2020-05-20
2020-05-21,104.44000244140625,105.70999908447266,104.44000244140625,105.08999633789062,101.52909851074219,233900,2020-05-21
2020-05-22,104.97000122070312,105.25,103.70999908447266,105.0999984741211,101.53878021240234,151200,2020-05-22
2020-05-26,107.33999633789062,110.19000244140625,106.77999877929688,109.55000305175781,105.8379898071289,332200,2020-05-26
2020-05-27,111.06999969482422,112.6500015258789,110.3499984741211,112.55000305175781,108.73635864257812,290400,2020-05-27
2020-05-28,113.33000183105469,113.33000183105469,110.94000244140625,111.5999984741211,107.81852722167969,233600,2020-05-28
2020-05-29,111.0999984741211,111.52999877929688,109.70999908447266,111.38999938964844,107.61563110351562,215300,2020-05-29
2020-06-01,111.27999877929688,111.87999725341797,110.5999984741211,111.41999816894531,107.6446304321289,277000,2020-06-01
2020-06-02,111.75,112.47000122070312,110.94000244140625,112.06999969482422,108.2726058959961,224900,2020-06-02
2020-06-03,112.69999694824219,114.0999984741211,112.69999694824219,113.27999877929688,109.44161224365234,196600,2020-06-03
2020-06-04,113.5,113.5,111.0199966430664,112.13999938964844,108.34021759033203,182500,2020-06-04
2020-06-05,113.80000305175781,114.27999877929688,112.91000366210938,113.4000015258789,109.55754089355469,235500,2020-06-05
2020-06-08,112.81999969482422,114.0,112.29000091552734,113.58000183105469,109.7314453125,244700,2020-06-08
2020-06-09,112.77999877929688,113.44999694824219,111.91000366210938,112.47000122070312,108.6590576171875,292100,2020-06-09
2020-06-10,113.0,113.0,110.81999969482422,111.63999938964844,107.85717010498047,366600,2020-06-10
2020-06-11,110.0,110.61000061035156,104.20999908447266,104.25,100.71758270263672,376900,2020-06-11
2020-06-12,106.69000244140625,107.52999877929688,103.08000183105469,105.36000061035156,101.78997039794922,247300,2020-06-12
2020-06-15,103.44000244140625,106.54000091552734,103.06999969482422,105.41000366210938,101.83827209472656,235900,2020-06-15
2020-06-16,108.30000305175781,109.08999633789062,106.86000061035156,107.38999938964844,103.75117492675781,252600,2020-06-16
2020-06-17,108.19000244140625,108.6500015258789,106.37000274658203,106.91000366210938,103.28744506835938,208800,2020-06-17
2020-06-18,106.27999877929688,107.97000122070312,105.97000122070312,106.98999786376953,103.36473846435547,217800,2020-06-18
2020-06-19,107.20999908447266,107.98999786376953,106.0999984741211,107.5999984741211,103.95406341552734,303700,2020-06-19
2020-06-22,106.94000244140625,107.66999816894531,105.5,107.55000305175781,103.90575408935547,241900,2020-06-22
2020-06-23,108.45999908447266,108.45999908447266,106.91999816894531,107.44000244140625,103.79948425292969,228300,2020-06-23
2020-06-24,106.58000183105469,107.5199966430664,105.8499984741211,105.94000244140625,102.35031127929688,433900,2020-06-24
2020-06-25,105.41000366210938,107.62999725341797,103.77999877929688,107.5999984741211,103.95406341552734,263600,2020-06-25
2020-06-26,107.12000274658203,108.69000244140625,106.16999816894531,107.72000122070312,104.06999969482422,924200,2020-06-26
2020-06-29,108.23999786376953,110.19000244140625,107.88999938964844,109.25,105.54814910888672,189300,2020-06-29
2020-06-30,109.12999725341797,112.27999877929688,109.12999725341797,111.9800033569336,108.18565368652344,421800,2020-06-30
2020-07-01,111.91000366210938,112.66999816894531,110.94999694824219,112.4800033569336,108.66873168945312,247900,2020-07-01
2020-07-02,113.44000244140625,115.01000213623047,113.44000244140625,114.97000122070312,111.0743408203125,271400,2020-07-02
2020-07-06,115.98999786376953,116.66000366210938,114.18000030517578,115.26000213623047,111.3545150756836,330900,2020-07-06
2020-07-07,114.63999938964844,116.0,114.18000030517578,115.1500015258789,111.24824523925781,346500,2020-07-07
2020-07-08,114.79000091552734,115.75,112.58999633789062,112.93000030517578,109.10346221923828,205900,2020-07-08
2020-07-09,113.16000366210938,114.13999938964844,111.41000366210938,113.76000213623047,109.90533447265625,307200,2020-07-09
2020-07-10,114.16999816894531,115.16999816894531,112.4000015258789,114.94999694824219,111.05501556396484,244500,2020-07-10
2020-07-13,114.95999908447266,116.2699966430664,113.2699966430664,113.43000030517578,109.58651733398438,289000,2020-07-13
2020-07-14,113.76000213623047,116.5,113.69000244140625,116.30999755859375,112.36893463134766,193600,2020-07-14
2020-07-15,117.44000244140625,118.29000091552734,116.54000091552734,117.9000015258789,113.9050521850586,326900,2020-07-15
2020-07-16,118.04000091552734,118.48999786376953,116.80000305175781,117.23999786376953,113.26742553710938,252900,2020-07-16
2020-07-17,118.0,119.70999908447266,117.33999633789062,119.4000015258789,115.35424041748047,249000,2020-07-17
2020-07-20,119.4000015258789,119.75,118.2699966430664,119.29000091552734,115.24796295166016,183200,2020-07-20
2020-07-21,119.58000183105469,119.87000274658203,117.66999816894531,118.18000030517578,114.17556762695312,394300,2020-07-21
2020-07-22,118.25,118.9800033569336,117.41000366210938,118.5,114.48473358154297,414600,2020-07-22
2020-07-23,118.38999938964844,119.2300033569336,118.08999633789062,118.44000244140625,114.4267578125,286700,2020-07-23
2020-07-24,119.0,119.79000091552734,118.37999725341797,118.8499984741211,114.82286834716797,244700,2020-07-24
2020-07-27,118.83000183105469,120.44999694824219,118.5,119.8499984741211,115.78899383544922,281800,2020-07-27
2020-07-28,119.80999755859375,119.80999755859375,117.77999877929688,118.05000305175781,114.39358520507812,208600,2020-07-28
2020-07-29,118.72000122070312,119.41000366210938,117.33000183105469,118.80999755859375,115.13004302978516,251200,2020-07-29
2020-07-30,117.75,118.91000366210938,116.69999694824219,117.91000366210938,114.2579345703125,359800,2020-07-30
2020-07-31,115.0,117.9000015258789,111.22000122070312,115.19999694824219,111.63186645507812,668100,2020-07-31
2020-08-03,116.8499984741211,119.68000030517578,114.8499984741211,118.66000366210938,114.98469543457031,292900,2020-08-03
2020-08-04,118.94999694824219,120.18000030517578,118.22000122070312,118.62000274658203,114.94593048095703,233100,2020-08-04
2020-08-05,119.55999755859375,120.66999816894531,118.22000122070312,118.36000061035156,114.69398498535156,164700,2020-08-05
2020-08-06,118.81999969482422,120.11000061035156,116.68000030517578,117.66000366210938,114.01567840576172,246500,2020-08-06
2020-08-07,117.06999969482422,119.37000274658203,116.77999877929688,119.25,115.55642700195312,202300,2020-08-07
2020-08-10,119.58000183105469,119.58000183105469,116.9000015258789,117.0,113.37611389160156,204700,2020-08-10
2020-08-11,118.0199966430664,119.3499984741211,116.52999877929688,116.73999786376953,113.1241683959961,214100,2020-08-11
2020-08-12,116.91999816894531,118.56999969482422,116.75,118.08999633789062,114.4323501586914,171800,2020-08-12
2020-08-13,117.23999786376953,119.47000122070312,117.23999786376953,118.5199966430664,114.84902954101562,213800,2020-08-13
2020-08-14,117.87999725341797,119.63999938964844,117.69999694824219,118.48999786376953,114.81995391845703,134600,2020-08-14
2020-08-17,119.13999938964844,119.91999816894531,118.01000213623047,118.25,114.58739471435547,160500,2020-08-17
2020-08-18,117.91000366210938,118.63999938964844,116.7699966430664,117.87999725341797,114.2288589477539,171500,2020-08-18
2020-08-19,118.69999694824219,119.37000274658203,117.31999969482422,117.69000244140625,114.04473876953125,145600,2020-08-19
2020-08-20,117.05999755859375,118.12999725341797,116.5999984741211,117.55000305175781,113.90907287597656,159400,2020-08-20
2020-08-21,117.12000274658203,118.3499984741211,116.4000015258789,117.80000305175781,114.15133666992188,199200,2020-08-21
2020-08-24,118.19999694824219,119.76000213623047,118.19999694824219,119.11000061035156,115.42076110839844,224000,2020-08-24
2020-08-25,119.54000091552734,119.54000091552734,117.93000030517578,118.12999725341797,114.47110748291016,114400,2020-08-25
2020-08-26,117.98999786376953,119.0,117.55999755859375,118.5999984741211,114.92655181884766,120000,2020-08-26
2020-08-27,118.62999725341797,120.62000274658203,118.5,120.05000305175781,116.33163452148438,209800,2020-08-27
2020-08-28,119.69999694824219,119.69999694824219,118.0,118.12999725341797,114.47110748291016,295200,2020-08-28
2020-08-31,118.58000183105469,119.16000366210938,117.77999877929688,118.38999938964844,114.72306823730469,182500,2020-08-31
2020-09-01,117.94000244140625,119.63999938964844,117.94000244140625,119.5,115.7986831665039,133900,2020-09-01
2020-09-02,119.75,122.44000244140625,118.97000122070312,122.26000213623047,118.47319030761719,153800,2020-09-02
2020-09-03,122.27999877929688,122.27999877929688,118.5,119.16999816894531,115.47889709472656,227200,2020-09-03
2020-09-04,120.04000091552734,120.30000305175781,116.48999786376953,118.72000122070312,115.0428466796875,224200,2020-09-04
2020-09-08,118.12999725341797,118.12999725341797,116.04000091552734,116.05999755859375,112.46521759033203,164600,2020-09-08
2020-09-09,116.63999938964844,118.62999725341797,116.63999938964844,117.88999938964844,114.2385482788086,154000,2020-09-09
2020-09-10,118.16999816894531,118.91000366210938,116.70999908447266,117.19000244140625,113.56023406982422,253500,2020-09-10
2020-09-11,117.87999725341797,118.70999908447266,117.12999725341797,118.36000061035156,114.69398498535156,124600,2020-09-11
2020-09-14,119.37000274658203,120.05999755859375,118.47000122070312,119.08000183105469,115.39167785644531,129000,2020-09-14
2020-09-15,119.44000244140625,119.80000305175781,118.12000274658203,118.33000183105469,114.6649169921875,125600,2020-09-15
2020-09-16,119.58000183105469,119.58000183105469,117.56999969482422,117.7699966430664,114.12226104736328,232000,2020-09-16
2020-09-17,116.5,117.23999786376953,115.08000183105469,115.95999908447266,112.36833953857422,354500,2020-09-17
2020-09-18,116.58000183105469,116.75,114.2300033569336,115.04000091552734,111.47682189941406,555700,2020-09-18
2020-09-21,113.5999984741211,114.04000091552734,111.81999969482422,113.44999694824219,109.9360580444336,251500,2020-09-21
2020-09-22,113.97000122070312,114.66999816894531,113.55999755859375,114.33000183105469,110.788818359375,292400,2020-09-22
2020-09-23,114.19999694824219,114.52999877929688,111.70999908447266,112.13999938964844,108.6666488647461,172300,2020-09-23
2020-09-24,111.9000015258789,113.16999816894531,111.16000366210938,112.26000213623047,108.78292846679688,274300,2020-09-24
2020-09-25,111.45999908447266,112.58000183105469,111.45999908447266,112.0999984741211,108.62789154052734,254100,2020-09-25
2020-09-28,113.16999816894531,114.22000122070312,112.04000091552734,112.36000061035156,108.87982177734375,230000,2020-09-28
2020-09-29,112.05999755859375,113.3499984741211,111.75,112.62000274658203,109.13177490234375,230000,2020-09-29
2020-09-30,113.2699966430664,114.05999755859375,112.5,113.19999694824219,109.69380950927734,200500,2020-09-30
2020-10-01,113.44999694824219,114.97000122070312,113.13999938964844,113.69999694824219,110.17829895019531,166000,2020-10-01
2020-10-02,112.30999755859375,114.18000030517578,112.30999755859375,112.8499984741211,109.35464477539062,166800,2020-10-02
2020-10-05,113.36000061035156,114.93000030517578,113.20999908447266,114.55000305175781,111.00199890136719,151300,2020-10-05
2020-10-06,115.01000213623047,115.9000015258789,113.91999816894531,114.55999755859375,111.01168060302734,224000,2020-10-06
2020-10-07,115.08999633789062,116.16999816894531,114.5,114.9800033569336,111.41869354248047,173200,2020-10-07
2020-10-08,115.80000305175781,116.79000091552734,115.5199966430664,116.5199966430664,112.91098022460938,138000,2020-10-08
2020-10-09,118.12000274658203,118.38999938964844,116.19000244140625,116.80999755859375,113.19200134277344,148700,2020-10-09
2020-10-12,117.05000305175781,118.83000183105469,116.69999694824219,118.04000091552734,114.38390350341797,138100,2020-10-12
2020-10-13,117.7300033569336,118.91000366210938,117.25,117.55999755859375,113.91874694824219,159000,2020-10-13
2020-10-14,117.5,118.02999877929688,116.04000091552734,116.44000244140625,112.83345031738281,98900,2020-10-14
2020-10-15,114.72000122070312,116.58999633789062,114.22000122070312,116.33999633789062,112.73655700683594,116900,2020-10-15
2020-10-16,116.70999908447266,117.2300033569336,116.19000244140625,116.3499984741211,112.74624633789062,97700,2020-10-16
2020-10-19,116.63999938964844,116.63999938964844,114.58000183105469,115.1500015258789,111.58341217041016,113700,2020-10-19
2020-10-20,116.05000305175781,117.55999755859375,115.22000122070312,116.95999908447266,113.33735656738281,192600,2020-10-20
2020-10-21,117.2699966430664,118.76000213623047,117.2699966430664,117.73999786376953,114.09319305419922,133700,2020-10-21
2020-10-22,117.88999938964844,118.4800033569336,116.75,118.30999755859375,114.64553833007812,164100,2020-10-22
2020-10-23,118.75,118.97000122070312,117.4800033569336,118.3499984741211,114.68428802490234,105600,2020-10-23
2020-10-26,117.3499984741211,117.48999786376953,115.93000030517578,117.45999908447266,113.82186126708984,114100,2020-10-26
2020-10-27,117.16999816894531,117.19000244140625,115.61000061035156,115.6500015258789,112.4124526977539,125000,2020-10-27
2020-10-28,114.11000061035156,114.61000061035156,112.25,112.33999633789062,109.19511413574219,170500,2020-10-28
2020-10-29,112.30000305175781,113.0999984741211,110.33999633789062,112.94000244140625,109.77832794189453,279100,2020-10-29
2020-10-30,116.25,116.76000213623047,113.54000091552734,114.08999633789062,110.89613342285156,377900,2020-10-30
2020-11-02,115.16999816894531,118.29000091552734,114.66999816894531,118.19000244140625,114.88134765625,215600,2020-11-02
2020-11-03,118.5,121.45999908447266,118.33000183105469,119.55999755859375,116.2129898071289,242400,2020-11-03
2020-11-04,120.0,120.0199966430664,118.0999984741211,119.05000305175781,115.71726989746094,150600,2020-11-04
2020-11-05,120.61000061035156,123.0999984741211,120.43000030517578,122.91000366210938,119.46922302246094,185500,2020-11-05
2020-11-06,123.58999633789062,124.61000061035156,122.47000122070312,123.5999984741211,120.139892578125,220300,2020-11-06
2020-11-09,127.62000274658203,128.86000061035156,122.11000061035156,123.16999816894531,119.72193145751953,336500,2020-11-09
2020-11-10,123.38999938964844,128.8000030517578,122.94999694824219,127.61000061035156,124.03764343261719,326100,2020-11-10
2020-11-11,127.75,127.75,124.37000274658203,125.2699966430664,121.76313781738281,194700,2020-11-11
2020-11-12,124.23999786376953,125.20999908447266,122.58999633789062,124.2699966430664,120.79113006591797,126300,2020-11-12
2020-11-13,124.8499984741211,126.0,124.0999984741211,125.06999969482422,121.56875610351562,126300,2020-11-13
2020-11-16,126.27999877929688,127.0,125.56999969482422,126.86000061035156,123.30863952636719,207400,2020-11-16
2020-11-17,126.26000213623047,128.10000610351562,125.69999694824219,127.36000061035156,123.79463958740234,191200,2020-11-17
2020-11-18,127.43000030517578,127.86000061035156,125.97000122070312,126.37000274658203,122.83235931396484,173100,2020-11-18
2020-11-19,126.69999694824219,127.62000274658203,126.0,127.2300033569336,123.66828155517578,213900,2020-11-19
2020-11-20,127.51000213623047,128.36000061035156,127.19000244140625,127.80999755859375,124.23204803466797,237300,2020-11-20
2020-11-23,128.05999755859375,129.1199951171875,126.4000015258789,126.86000061035156,123.30863952636719,182300,2020-11-23
2020-11-24,128.16000366210938,128.47000122070312,126.87999725341797,127.87999725341797,124.30007934570312,237200,2020-11-24
2020-11-25,128.47999572753906,128.47999572753906,125.7699966430664,126.29000091552734,122.75460052490234,136100,2020-11-25
2020-11-27,126.55000305175781,127.30000305175781,126.08000183105469,127.23999786376953,123.6780014038086,67800,2020-11-27
2020-11-30,126.79000091552734,126.93000030517578,125.69000244140625,126.31999969482422,122.78376770019531,204600,2020-11-30
2020-12-01,127.1500015258789,128.5800018310547,126.41999816894531,127.81999969482422,124.24176025390625,165800,2020-12-01
2020-12-02,127.36000061035156,128.0500030517578,125.72000122070312,126.26000213623047,122.7254409790039,133800,2020-12-02
2020-12-03,126.06999969482422,127.11000061035156,125.1500015258789,125.87000274658203,122.34635925292969,138700,2020-12-03
2020-12-04,125.4800033569336,127.80000305175781,125.4800033569336,127.68000030517578,124.10568237304688,144600,2020-12-04
2020-12-07,127.98999786376953,128.99000549316406,127.63999938964844,128.6300048828125,125.02909851074219,115000,2020-12-07
2020-12-08,128.2899932861328,130.89999389648438,127.94000244140625,129.19000244140625,125.57340240478516,162100,2020-12-08
2020-12-09,129.1300048828125,130.17999267578125,128.66000366210938,129.52999877929688,125.90388488769531,144800,2020-12-09
2020-12-10,129.47000122070312,131.08999633789062,129.02000427246094,130.47000122070312,126.81757354736328,247100,2020-12-10
2020-12-11,129.58999633789062,131.10000610351562,129.58999633789062,130.4499969482422,126.7981185913086,165800,2020-12-11
2020-12-14,131.0500030517578,131.99000549316406,128.1999969482422,128.41000366210938,124.81524658203125,205800,2020-12-14
2020-12-15,128.55999755859375,130.64999389648438,128.30999755859375,130.25999450683594,126.6134262084961,158200,2020-12-15
2020-12-16,130.99000549316406,131.74000549316406,130.1999969482422,131.10000610351562,127.42994689941406,265400,2020-12-16
2020-12-17,131.2899932861328,133.69000244140625,131.0,133.13999938964844,129.41282653808594,297700,2020-12-17
2020-12-18,134.0,134.6699981689453,133.63999938964844,134.10000610351562,130.34597778320312,656300,2020-12-18
2020-12-21,132.77999877929688,135.0,131.5,134.88999938964844,131.11383056640625,211700,2020-12-21
2020-12-22,134.64999389648438,136.22000122070312,134.00999450683594,134.5,130.73477172851562,257300,2020-12-22
2020-12-23,134.52000427246094,135.75,134.4499969482422,134.52999877929688,130.76390075683594,191600,2020-12-23
2020-12-24,135.0,136.3699951171875,134.64999389648438,135.6999969482422,131.9011688232422,84200,2020-12-24
2020-12-28,136.19000244140625,137.13999938964844,135.05999755859375,135.67999267578125,131.8817138671875,100400,2020-12-28
2020-12-29,136.27000427246094,136.75,134.83999633789062,135.30999755859375,131.5220947265625,94400,2020-12-29
2020-12-30,135.91000366210938,137.36000061035156,135.4600067138672,136.38999938964844,132.5718536376953,99000,2020-12-30
2020-12-31,136.77000427246094,137.32000732421875,135.61000061035156,136.88999938964844,133.05783081054688,169800,2020-12-31
2021-01-04,135.9199981689453,137.97000122070312,133.67999267578125,134.0,130.24876403808594,315700,2021-01-04
2021-01-05,134.1300048828125,135.2899932861328,133.5399932861328,133.6999969482422,129.95713806152344,260500,2021-01-05
2021-01-06,134.22000122070312,137.97000122070312,134.22000122070312,137.72000122070312,133.8646240234375,289300,2021-01-06
2021-01-07,137.52000427246094,140.0,136.50999450683594,139.6999969482422,135.78916931152344,192400,2021-01-07
2021-01-08,139.57000732421875,140.6199951171875,137.75999450683594,139.07000732421875,135.17681884765625,140600,2021-01-08
2021-01-11,139.5,139.8699951171875,138.3800048828125,138.7899932861328,134.90464782714844,115300,2021-01-11
2021-01-12,138.80999755859375,139.22999572753906,137.08999633789062,138.14999389648438,134.2825927734375,199200,2021-01-12
2021-01-13,137.9499969482422,139.5800018310547,136.13999938964844,138.5800018310547,134.7005615234375,245000,2021-01-13
2021-01-14,138.5,140.7100067138672,137.52000427246094,139.4499969482422,135.54620361328125,181200,2021-01-14
2021-01-15,139.0399932861328,141.3300018310547,138.3699951171875,138.8300018310547,134.94357299804688,149300,2021-01-15
2021-01-19,139.5800018310547,140.6199951171875,137.25,137.25999450683594,133.41749572753906,222300,2021-01-19
2021-01-20,137.72999572753906,140.75,137.49000549316406,140.6199951171875,136.6834259033203,254100,2021-01-20
2021-01-21,140.27000427246094,141.1300048828125,138.00999450683594,138.11000061035156,134.2436981201172,208300,2021-01-21
2021-01-22,137.86000061035156,138.3800048828125,137.11000061035156,138.19000244140625,134.32147216796875,227800,2021-01-22
2021-01-25,138.16000366210938,139.9199981689453,137.85000610351562,139.57000732421875,135.66282653808594,187100,2021-01-25
2021-01-26,139.42999267578125,140.0,137.0800018310547,138.85000610351562,135.31202697753906,125900,2021-01-26
2021-01-27,137.52999877929688,137.52999877929688,133.14999389648438,133.25,129.8546905517578,186900,2021-01-27
2021-01-28,134.0800018310547,135.8000030517578,133.61000061035156,135.25,131.8037567138672,165800,2021-01-28
2021-01-29,134.42999267578125,135.36000061035156,131.82000732421875,132.97000122070312,129.5818328857422,377800,2021-01-29
2021-02-01,134.1300048828125,134.38999938964844,131.80999755859375,134.08999633789062,130.67327880859375,184700,2021-02-01
2021-02-02,135.0500030517578,138.1199951171875,134.74000549316406,136.94000244140625,133.45069885253906,193000,2021-02-02
2021-02-03,136.16000366210938,137.3000030517578,135.38999938964844,136.55999755859375,133.08035278320312,134700,2021-02-03
2021-02-04,136.1199951171875,138.39999389648438,135.0,138.0,134.48365783691406,251100,2021-02-04
2021-02-05,139.4600067138672,140.72999572753906,138.72000122070312,140.66000366210938,137.0758819580078,177500,2021-02-05
2021-02-08,141.25,142.0,140.52999877929688,141.97999572753906,138.3622589111328,171200,2021-02-08
2021-02-09,141.9600067138672,142.88999938964844,141.22000122070312,142.1699981689453,138.5474090576172,183000,2021-02-09
2021-02-10,143.0,144.10000610351562,142.50999450683594,143.25,139.59991455078125,151100,2021-02-10
2021-02-11,143.5,144.32000732421875,142.05999755859375,142.97000122070312,139.32701110839844,195800,2021-02-11
2021-02-12,142.3800048828125,144.75999450683594,142.3800048828125,144.6300048828125,140.94471740722656,105300,2021-02-12
2021-02-16,144.61000061035156,144.72000122070312,142.89999389648438,143.60000610351562,139.9409637451172,175300,2021-02-16
2021-02-17,143.75,144.17999267578125,142.4499969482422,143.2100067138672,139.56088256835938,200700,2021-02-17
2021-02-18,142.6199951171875,143.17999267578125,140.99000549316406,140.99000549316406,137.3974609375,208700,2021-02-18
2021-02-19,138.57000732421875,138.57000732421875,131.61000061035156,132.24000549316406,128.87045288085938,492900,2021-02-19
2021-02-22,131.25,131.3699951171875,127.5,129.10000610351562,125.8104476928711,347100,2021-02-22
2021-02-23,127.81999969482422,128.72000122070312,126.77999877929688,128.27999877929688,125.0113296508789,490700,2021-02-23
2021-02-24,128.25999450683594,129.0399932861328,127.80000305175781,128.75999450683594,125.47909545898438,213000,2021-02-24
2021-02-25,128.77000427246094,130.91000366210938,128.77000427246094,130.3000030517578,126.97987365722656,378600,2021-02-25
2021-02-26,131.05999755859375,131.57000732421875,129.55999755859375,130.07000732421875,126.7557144165039,386500,2021-02-26
2021-03-01,130.77999877929688,132.0,129.8800048828125,130.60000610351562,127.27220916748047,283000,2021-03-01
2021-03-02,130.44000244140625,130.66000366210938,129.47000122070312,130.35000610351562,127.02861022949219,367700,2021-03-02
2021-03-03,130.3699951171875,132.17999267578125,129.5,131.0500030517578,127.71075439453125,220400,2021-03-03
2021-03-04,130.88999938964844,131.89999389648438,130.1300048828125,130.39999389648438,127.07730102539062,493600,2021-03-04
2021-03-05,131.13999938964844,134.13999938964844,130.41000366210938,134.08999633789062,130.67327880859375,204700,2021-03-05
2021-03-08,134.8300018310547,138.47999572753906,134.10000610351562,137.7100067138672,134.20106506347656,230600,2021-03-08
2021-03-09,138.67999267578125,140.6699981689453,137.67999267578125,137.69000244140625,134.18154907226562,251500,2021-03-09
2021-03-10,138.2100067138672,140.1199951171875,137.94000244140625,139.3800048828125,135.8284912109375,150700,2021-03-10
2021-03-11,139.19000244140625,140.4199981689453,138.74000549316406,139.3800048828125,135.8284912109375,169100,2021-03-11
2021-03-12,140.0,141.24000549316406,139.25999450683594,140.77000427246094,137.18309020996094,219000,2021-03-12
2021-03-15,141.77999877929688,143.02999877929688,141.00999450683594,142.1300048828125,138.5084228515625,356200,2021-03-15
2021-03-16,141.7100067138672,142.10000610351562,139.3300018310547,140.5,136.91995239257812,280700,2021-03-16
2021-03-17,139.91000366210938,141.74000549316406,139.3800048828125,141.27999877929688,137.68008422851562,180900,2021-03-17
2021-03-18,141.33999633789062,142.47000122070312,140.94000244140625,141.50999450683594,137.9042205810547,174100,2021-03-18
2021-03-19,142.05999755859375,142.3300018310547,139.0399932861328,139.30999755859375,135.76028442382812,615000,2021-03-19
2021-03-22,138.97000122070312,141.86000061035156,138.25999450683594,141.58999633789062,137.982177734375,247700,2021-03-22
2021-03-23,140.52999877929688,142.55999755859375,140.16000366210938,140.77000427246094,137.18309020996094,330100,2021-03-23
2021-03-24,141.16000366210938,144.3300018310547,141.16000366210938,141.83999633789062,138.22581481933594,300800,2021-03-24
2021-03-25,141.39999389648438,143.22999572753906,140.4499969482422,142.47000122070312,138.8397674560547,265600,2021-03-25
2021-03-26,143.0,144.82000732421875,142.19000244140625,144.82000732421875,141.12989807128906,286800,2021-03-26
2021-03-29,144.24000549316406,145.89999389648438,143.38999938964844,144.77000427246094,141.08116149902344,272200,2021-03-29
2021-03-30,144.3300018310547,144.41000366210938,142.60000610351562,143.0800018310547,139.43423461914062,247900,2021-03-30
2021-03-31,143.02999877929688,143.47000122070312,141.22999572753906,141.6699981689453,138.06016540527344,408600,2021-03-31
2021-04-01,141.99000549316406,143.97999572753906,141.3800048828125,143.8699951171875,140.20407104492188,228200,2021-04-01
2021-04-05,144.9499969482422,144.9499969482422,143.33999633789062,144.69000244140625,141.00318908691406,196100,2021-04-05
2021-04-06,144.0399932861328,145.99000549316406,143.32000732421875,145.97000122070312,142.25059509277344,206100,2021-04-06
2021-04-07,145.27999877929688,145.5,143.3800048828125,143.58999633789062,139.93124389648438,188000,2021-04-07
2021-04-08,143.8000030517578,143.9600067138672,142.19000244140625,143.67999267578125,140.01890563964844,158700,2021-04-08
2021-04-09,144.4199981689453,145.3000030517578,143.27999877929688,145.1999969482422,141.5001983642578,151400,2021-04-09
2021-04-12,144.67999267578125,146.3800048828125,144.67999267578125,146.2100067138672,142.4844512939453,100800,2021-04-12
2021-04-13,146.60000610351562,147.00999450683594,145.44000244140625,146.3300018310547,142.60140991210938,160800,2021-04-13
2021-04-14,144.5,146.14999389648438,144.5,145.80999755859375,142.09466552734375,185100,2021-04-14
2021-04-15,146.9199981689453,147.89999389648438,146.02999877929688,147.1999969482422,143.44921875,184800,2021-04-15
2021-04-16,149.13999938964844,149.58999633789062,147.57000732421875,148.0800018310547,144.30682373046875,322600,2021-04-16
2021-04-19,148.22999572753906,149.7899932861328,147.75,149.7100067138672,145.89527893066406,203900,2021-04-19
2021-04-20,147.0,150.75,146.6699981689453,150.4199981689453,146.58718872070312,190300,2021-04-20
2021-04-21,150.14999389648438,152.36000061035156,150.14999389648438,151.94000244140625,148.0684814453125,191200,2021-04-21
2021-04-22,152.02000427246094,152.02000427246094,149.94000244140625,150.07000732421875,146.24610900878906,278400,2021-04-22
2021-04-23,150.2899932861328,151.74000549316406,149.8300018310547,151.4499969482422,147.59092712402344,188100,2021-04-23
2021-04-26,151.75,152.17999267578125,150.89999389648438,150.9199981689453,147.07444763183594,193600,2021-04-26
2021-04-27,150.10000610351562,151.6699981689453,149.47999572753906,151.63999938964844,148.14910888671875,214900,2021-04-27
2021-04-28,151.42999267578125,153.07000732421875,151.0500030517578,151.1199951171875,147.64111328125,192000,2021-04-28
2021-04-29,151.44000244140625,152.14999389648438,150.39999389648438,150.9199981689453,147.44570922851562,226400,2021-04-29
2021-04-30,150.0,151.94000244140625,147.89999389648438,150.80999755859375,147.33819580078125,365700,2021-04-30
2021-05-03,152.16000366210938,153.1999969482422,151.74000549316406,152.4600067138672,148.9502410888672,212900,2021-05-03
2021-05-04,152.88999938964844,156.13999938964844,152.88999938964844,155.02000427246094,151.45132446289062,206800,2021-05-04
2021-05-05,155.3000030517578,155.3000030517578,153.38999938964844,154.17999267578125,150.63064575195312,186400,2021-05-05
2021-05-06,154.1300048828125,156.6300048828125,153.63999938964844,156.52000427246094,152.91677856445312,240600,2021-05-06
2021-05-07,155.5500030517578,157.92999267578125,155.5500030517578,157.55999755859375,153.93284606933594,187100,2021-05-07
2021-05-10,157.74000549316406,158.97000122070312,155.38999938964844,155.47999572753906,151.90072631835938,226300,2021-05-10
2021-05-11,154.5500030517578,155.66000366210938,153.72000122070312,153.99000549316406,150.4450225830078,299700,2021-05-11
2021-05-12,153.61000061035156,154.5500030517578,151.61000061035156,151.61000061035156,148.11984252929688,164100,2021-05-12
2021-05-13,151.39999389648438,155.2899932861328,151.33999633789062,154.6199951171875,151.06051635742188,308900,2021-05-13
2021-05-14,154.97000122070312,155.2899932861328,153.17999267578125,153.5399932861328,150.00537109375,174000,2021-05-14
2021-05-17,153.11000061035156,154.08999633789062,152.22999572753906,153.11000061035156,149.5852813720703,136800,2021-05-17
2021-05-18,153.41000366210938,154.0,150.86000061035156,150.9199981689453,147.44570922851562,172500,2021-05-18
2021-05-19,150.0,151.0399932861328,148.60000610351562,149.5399932861328,146.09747314453125,161400,2021-05-19
2021-05-20,149.27000427246094,150.61000061035156,149.0399932861328,149.74000549316406,146.29286193847656,123200,2021-05-20
2021-05-21,149.92999267578125,150.5800018310547,148.8800048828125,149.6300048828125,146.18539428710938,134900,2021-05-21
2021-05-24,150.47000122070312,150.72999572753906,148.9600067138672,149.25999450683594,145.82391357421875,143000,2021-05-24
2021-05-25,149.63999938964844,150.1199951171875,147.47000122070312,147.72999572753906,144.32913208007812,199200,2021-05-25
2021-05-26,148.5,149.38999938964844,147.1699981689453,147.86000061035156,144.4561309814453,113600,2021-05-26
2021-05-27,148.6199951171875,149.14999389648438,146.47999572753906,146.77000427246094,143.39122009277344,172600,2021-05-27
2021-05-28,147.2899932861328,147.5,146.4199981689453,147.30999755859375,143.91880798339844,146900,2021-05-28
2021-06-01,147.97999572753906,148.80999755859375,146.61000061035156,146.8800048828125,143.4987030029297,173000,2021-06-01
2021-06-02,146.85000610351562,147.88999938964844,145.1199951171875,145.66000366210938,142.30679321289062,282800,2021-06-02
2021-06-03,145.47999572753906,146.1199951171875,144.74000549316406,145.39999389648438,142.0527801513672,224500,2021-06-03
2021-06-04,146.0399932861328,146.25999450683594,144.77999877929688,145.55999755859375,142.20909118652344,151900,2021-06-04
2021-06-07,145.52999877929688,146.08999633789062,142.02999877929688,142.52000427246094,139.2390899658203,184800,2021-06-07
2021-06-08,142.52999877929688,142.91000366210938,141.1199951171875,142.77999877929688,139.49310302734375,182900,2021-06-08
2021-06-09,142.57000732421875,143.2100067138672,141.63999938964844,142.1699981689453,138.89712524414062,174100,2021-06-09
2021-06-10,142.38999938964844,145.0500030517578,142.22999572753906,144.99000549316406,141.65220642089844,216100,2021-06-10
2021-06-11,145.25999450683594,146.25,144.24000549316406,145.8300018310547,142.47288513183594,152900,2021-06-11
2021-06-14,146.0,146.0,143.07000732421875,143.49000549316406,140.18675231933594,223600,2021-06-14
2021-06-15,143.5399932861328,144.91000366210938,143.3699951171875,144.3300018310547,141.0074005126953,214200,2021-06-15
2021-06-16,144.4499969482422,145.19000244140625,142.44000244140625,142.6199951171875,139.33677673339844,168400,2021-06-16
2021-06-17,142.75999450683594,143.60000610351562,139.97000122070312,141.50999450683594,138.25230407714844,157900,2021-06-17
2021-06-18,140.75,141.89999389648438,139.91000366210938,140.10000610351562,136.87478637695312,280400,2021-06-18
2021-06-21,140.97999572753906,142.1999969482422,140.1699981689453,141.5800018310547,138.32070922851562,229800,2021-06-21
2021-06-22,141.88999938964844,142.66000366210938,141.16000366210938,141.6300048828125,138.3695831298828,207400,2021-06-22
2021-06-23,141.38999938964844,142.16000366210938,140.10000610351562,140.1699981689453,136.94317626953125,227600,2021-06-23
2021-06-24,140.92999267578125,140.92999267578125,139.7899932861328,140.17999267578125,136.95294189453125,142300,2021-06-24
2021-06-25,140.17999267578125,141.49000549316406,140.11000061035156,140.9199981689453,137.6759033203125,635000,2021-06-25
2021-06-28,141.0800018310547,141.4199981689453,139.72999572753906,140.7100067138672,137.4707489013672,218600,2021-06-28
2021-06-29,140.80999755859375,141.97000122070312,140.05999755859375,140.27999877929688,137.05064392089844,151900,2021-06-29
2021-06-30,140.32000732421875,141.9199981689453,140.2899932861328,140.83999633789062,137.59776306152344,186500,2021-06-30
2021-07-01,141.11000061035156,141.6999969482422,140.89999389648438,141.1199951171875,137.87130737304688,225500,2021-07-01
2021-07-02,141.47999572753906,141.94000244140625,140.05999755859375,140.41000366210938,137.17764282226562,121900,2021-07-02
2021-07-06,140.39999389648438,140.8699951171875,138.63999938964844,140.0500030517578,136.82594299316406,273400,2021-07-06
2021-07-07,139.82000732421875,141.4600067138672,139.82000732421875,141.02000427246094,137.77362060546875,219900,2021-07-07
2021-07-08,139.94000244140625,140.60000610351562,139.00999450683594,139.27000427246094,136.0639190673828,154200,2021-07-08
2021-07-09,139.85000610351562,141.27999877929688,139.75999450683594,141.17999267578125,137.929931640625,229800,2021-07-09
2021-07-12,140.82000732421875,141.00999450683594,140.0500030517578,140.4199981689453,137.1874237060547,174300,2021-07-12
2021-07-13,140.2100067138672,141.2100067138672,138.36000061035156,138.5,135.31161499023438,223600,2021-07-13
2021-07-14,138.6699981689453,139.14999389648438,138.00999450683594,138.44000244140625,135.25302124023438,179900,2021-07-14
2021-07-15,137.75,139.00999450683594,137.32000732421875,138.55999755859375,135.37022399902344,155500,2021-07-15
2021-07-16,139.00999450683594,140.35000610351562,138.39999389648438,139.0399932861328,135.83917236328125,177700,2021-07-16
2021-07-19,138.0399932861328,138.92999267578125,136.3800048828125,137.1300048828125,133.97315979003906,293000,2021-07-19
2021-07-20,137.3000030517578,139.64999389648438,137.0,137.02000427246094,133.86569213867188,294000,2021-07-20
2021-07-21,137.3000030517578,138.00999450683594,135.92999267578125,136.05999755859375,132.92779541015625,158000,2021-07-21
2021-07-22,136.3300018310547,136.74000549316406,134.66000366210938,134.6699981689453,131.56979370117188,203600,2021-07-22
2021-07-23,134.97999572753906,136.27999877929688,134.2899932861328,136.24000549316406,133.10365295410156,175200,2021-07-23
2021-07-26,136.75999450683594,137.1300048828125,135.89999389648438,136.72000122070312,133.57260131835938,191000,2021-07-26
2021-07-27,136.11000061035156,138.25,135.38999938964844,136.75999450683594,133.61166381835938,150500,2021-07-27
2021-07-28,136.52000427246094,137.82000732421875,136.22999572753906,137.64999389648438,134.4811553955078,165100,2021-07-28
2021-07-29,138.72000122070312,140.00999450683594,138.72000122070312,139.0500030517578,135.84893798828125,316000,2021-07-29
2021-07-30,136.0,139.50999450683594,128.17999267578125,128.9199981689453,125.9521484375,842400,2021-07-30
2021-08-02,128.44000244140625,130.5800018310547,127.69000244140625,129.91000366210938,126.91938018798828,453600,2021-08-02
2021-08-03,129.5500030517578,129.74000549316406,127.66999816894531,128.6300048828125,126.03751373291016,418300,2021-08-03
2021-08-04,128.75999450683594,129.39999389648438,126.31999969482422,126.7699966430664,124.21499633789062,294500,2021-08-04
2021-08-05,127.44000244140625,128.1999969482422,126.63999938964844,127.5,124.93028259277344,158000,2021-08-05
2021-08-06,128.0800018310547,129.4600067138672,127.91999816894531,128.42999267578125,125.84152221679688,184600,2021-08-06
2021-08-09,128.6999969482422,130.74000549316406,128.6199951171875,130.0800018310547,127.45828247070312,297200,2021-08-09
2021-08-10,129.30999755859375,131.2100067138672,128.9600067138672,129.1999969482422,126.59601593017578,200400,2021-08-10
2021-08-11,130.19000244140625,132.32000732421875,129.1699981689453,131.6300048828125,128.97706604003906,305900,2021-08-11
2021-08-12,132.5399932861328,133.60000610351562,131.91000366210938,132.67999267578125,130.00588989257812,247800,2021-08-12
2021-08-13,132.88999938964844,133.88999938964844,132.50999450683594,133.0500030517578,130.36842346191406,174300,2021-08-13
2021-08-16,132.58999633789062,133.1699981689453,131.66000366210938,132.8800048828125,130.2018585205078,106300,2021-08-16
2021-08-17,132.3300018310547,133.13999938964844,131.60000610351562,133.00999450683594,130.3292236328125,213100,2021-08-17
2021-08-18,132.27999877929688,133.10000610351562,132.0399932861328,132.0500030517578,129.38858032226562,110800,2021-08-18
2021-08-19,131.44000244140625,132.9499969482422,131.39999389648438,132.41000366210938,129.74130249023438,94000,2021-08-19
2021-08-20,132.10000610351562,133.91000366210938,131.92999267578125,133.52000427246094,130.82894897460938,118600,2021-08-20
2021-08-23,134.1699981689453,134.5500030517578,132.49000549316406,132.9600067138672,130.28024291992188,111200,2021-08-23
2021-08-24,132.9499969482422,133.72000122070312,132.22000122070312,132.9600067138672,130.28024291992188,85700,2021-08-24
2021-08-25,133.0800018310547,134.5,132.94000244140625,134.1300048828125,131.42666625976562,116000,2021-08-25
2021-08-26,133.60000610351562,133.77999877929688,132.47999572753906,132.66000366210938,129.9862823486328,133600,2021-08-26
2021-08-27,133.35000610351562,134.9499969482422,133.3000030517578,134.52999877929688,131.81858825683594,180600,2021-08-27
2021-08-30,135.16000366210938,136.22999572753906,135.0,135.22999572753906,132.50448608398438,122300,2021-08-30
2021-08-31,135.55999755859375,135.9499969482422,134.22000122070312,134.8000030517578,132.08316040039062,154100,2021-08-31
2021-09-01,135.11000061035156,135.5,134.13999938964844,135.00999450683594,132.28892517089844,135800,2021-09-01
2021-09-02,135.5,136.22000122070312,134.22999572753906,135.13999938964844,132.41629028320312,165500,2021-09-02
2021-09-03,135.27999877929688,136.19000244140625,134.92999267578125,135.14999389648438,132.4261016845703,112700,2021-09-03
2021-09-07,134.72000122070312,134.72000122070312,130.92999267578125,131.0800018310547,128.4381103515625,131600,2021-09-07
2021-09-08,130.33999633789062,131.35000610351562,130.33999633789062,130.8800048828125,128.2421417236328,325200,2021-09-08
2021-09-09,130.41000366210938,131.1199951171875,128.3699951171875,128.6300048828125,126.03751373291016,227700,2021-09-09
2021-09-10,128.27000427246094,129.3000030517578,125.81999969482422,125.83999633789062,123.30372619628906,341000,2021-09-10
2021-09-13,125.45999908447266,126.12000274658203,123.76000213623047,124.76000213623047,122.2455062866211,286000,2021-09-13
2021-09-14,125.12999725341797,126.41999816894531,124.22000122070312,124.58000183105469,122.06913757324219,184100,2021-09-14
2021-09-15,123.9000015258789,125.43000030517578,123.30000305175781,124.62999725341797,122.11811828613281,206600,2021-09-15
2021-09-16,124.47000122070312,125.31999969482422,122.04000091552734,122.30000305175781,119.83509063720703,176800,2021-09-16
2021-09-17,122.19999694824219,122.63999938964844,120.72000122070312,121.2300033569336,118.78665161132812,568400,2021-09-17
2021-09-20,119.76000213623047,121.87999725341797,119.54000091552734,121.86000061035156,119.4039535522461,289200,2021-09-20
2021-09-21,121.95999908447266,122.31999969482422,119.83000183105469,120.05999755859375,117.6402359008789,240600,2021-09-21
2021-09-22,120.37999725341797,121.20999908447266,119.44000244140625,120.27999877929688,117.85578918457031,235000,2021-09-22
2021-09-23,120.83999633789062,121.66000366210938,120.27999877929688,121.01000213623047,118.57108306884766,162100,2021-09-23
2021-09-24,120.66000366210938,121.41000366210938,120.2699966430664,120.36000061035156,117.9341812133789,186300,2021-09-24
2021-09-27,120.18000030517578,121.12999725341797,119.79000091552734,120.33000183105469,117.90478515625,206600,2021-09-27
2021-09-28,120.37000274658203,120.87000274658203,118.87999725341797,120.02999877929688,117.61083221435547,230800,2021-09-28
2021-09-29,120.0,121.29000091552734,120.0,120.37999725341797,117.95377349853516,237600,2021-09-29
2021-09-30,120.79000091552734,121.43000030517578,119.30000305175781,119.3499984741211,116.94454193115234,314900,2021-09-30
2021-10-01,119.83999633789062,122.31999969482422,118.61000061035156,121.58000183105469,119.12960052490234,259800,2021-10-01
2021-10-04,121.5,122.6500015258789,120.98999786376953,122.29000091552734,119.82527923583984,241900,2021-10-04
2021-10-05,121.87999725341797,122.87000274658203,120.62000274658203,121.66000366210938,119.2079849243164,249200,2021-10-05
2021-10-06,121.06999969482422,123.23999786376953,120.44999694824219,123.0999984741211,120.61896514892578,240900,2021-10-06
2021-10-07,123.27999877929688,126.04000091552734,123.2300033569336,124.26000213623047,121.75558471679688,252700,2021-10-07
2021-10-08,124.58999633789062,125.08999633789062,123.76000213623047,124.51000213623047,122.00054168701172,217900,2021-10-08
2021-10-11,124.47000122070312,126.20999908447266,124.2699966430664,124.56999969482422,122.05934143066406,182800,2021-10-11
2021-10-12,124.12000274658203,125.20999908447266,123.8499984741211,124.48999786376953,121.98094940185547,99800,2021-10-12
2021-10-13,125.19000244140625,127.56999969482422,124.76000213623047,127.38999938964844,124.8224868774414,266400,2021-10-13
2021-10-14,127.51000213623047,128.36000061035156,126.87999725341797,128.00999450683594,125.43000030517578,215400,2021-10-14
2021-10-15,128.61000061035156,129.25,127.70999908447266,128.22000122070312,125.6357650756836,193200,2021-10-15
2021-10-18,127.63999938964844,128.69000244140625,126.91000366210938,127.81999969482422,125.24382781982422,221100,2021-10-18
2021-10-19,128.13999938964844,128.5500030517578,127.16999816894531,127.55000305175781,124.9792709350586,143300,2021-10-19
2021-10-20,127.26000213623047,128.75999450683594,126.93000030517578,128.16000366210938,125.57698822021484,180000,2021-10-20
2021-10-21,128.0399932861328,129.55999755859375,127.30000305175781,129.07000732421875,126.46864318847656,139700,2021-10-21
2021-10-22,128.61000061035156,129.7899932861328,127.68000030517578,127.7699966430664,125.19483184814453,131600,2021-10-22
2021-10-25,127.95999908447266,128.8800048828125,126.70999908447266,127.79000091552734,125.21443939208984,216400,2021-10-25
2021-10-26,127.58999633789062,128.27999877929688,126.51000213623047,126.88999938964844,124.7033920288086,188500,2021-10-26
2021-10-27,126.5,127.19999694824219,125.27999877929688,125.31999969482422,123.16044616699219,202200,2021-10-27
2021-10-28,125.0999984741211,126.33999633789062,125.0999984741211,125.9800033569336,123.80908203125,218700,2021-10-28
2021-10-29,123.41999816894531,125.43000030517578,119.9000015258789,120.77999877929688,118.69867706298828,696400,2021-10-29
2021-11-01,119.9800033569336,125.66999816894531,119.9800033569336,125.18000030517578,123.02285766601562,581800,2021-11-01
2021-11-02,125.86000061035156,128.11000061035156,124.5,127.4000015258789,125.20460510253906,275500,2021-11-02
2021-11-03,127.48999786376953,128.5,126.16999816894531,128.39999389648438,126.18736267089844,290000,2021-11-03
2021-11-04,128.52000427246094,129.77999877929688,128.36000061035156,128.5500030517578,126.33478546142578,326300,2021-11-04
2021-11-05,129.5,131.66000366210938,129.1300048828125,131.5,129.2339630126953,335700,2021-11-05
2021-11-08,131.9499969482422,132.27000427246094,129.07000732421875,130.63999938964844,128.38877868652344,255000,2021-11-08
2021-11-09,130.22000122070312,131.47000122070312,129.75,130.36000061035156,128.1136016845703,170700,2021-11-09
2021-11-10,130.66000366210938,131.0800018310547,129.1699981689453,129.5800018310547,127.34703826904297,147000,2021-11-10
2021-11-11,129.77000427246094,130.5,128.72999572753906,129.8300018310547,127.59272766113281,131800,2021-11-11
2021-11-12,130.42999267578125,131.6199951171875,129.50999450683594,131.49000549316406,129.22412109375,177500,2021-11-12
2021-11-15,132.4199981689453,133.0,130.8000030517578,132.32000732421875,130.03982543945312,190800,2021-11-15
2021-11-16,132.25999450683594,135.80999755859375,132.0,134.24000549316406,131.92672729492188,402900,2021-11-16
2021-11-17,134.49000549316406,135.1999969482422,132.61000061035156,134.4499969482422,132.13311767578125,267100,2021-11-17
2021-11-18,134.13999938964844,134.13999938964844,129.50999450683594,129.63999938964844,127.40601348876953,258800,2021-11-18
2021-11-19,129.6699981689453,131.52000427246094,129.47999572753906,130.14999389648438,127.90721130371094,212800,2021-11-19
2021-11-22,130.5,131.49000549316406,128.7899932861328,128.8000030517578,126.58047485351562,274500,2021-11-22
2021-11-23,128.8000030517578,130.6699981689453,128.5,129.6999969482422,127.46495819091797,155800,2021-11-23
2021-11-24,129.33999633789062,130.0800018310547,127.70999908447266,128.17999267578125,125.97116088867188,220400,2021-11-24
2021-11-26,126.51000213623047,129.08999633789062,126.33999633789062,126.61000061035156,124.42822265625,167000,2021-11-26
2021-11-29,128.0500030517578,128.3000030517578,125.5,125.87000274658203,123.70097351074219,228100,2021-11-29
2021-11-30,124.69000244140625,125.44000244140625,119.31999969482422,119.58999633789062,117.52919006347656,593800,2021-11-30
2021-12-01,120.66999816894531,122.43000030517578,116.66999816894531,116.79000091552734,114.77743530273438,786000,2021-12-01
2021-12-02,117.31999969482422,120.69999694824219,116.94000244140625,119.6500015258789,117.5881576538086,578300,2021-12-02
2021-12-03,119.63999938964844,120.70999908447266,117.62999725341797,118.80000305175781,116.7528076171875,368300,2021-12-03
2021-12-06,120.2300033569336,121.22000122070312,118.83000183105469,120.22000122070312,118.14833068847656,615400,2021-12-06
2021-12-07,121.19999694824219,121.73999786376953,119.7699966430664,120.27999877929688,118.2072982788086,377900,2021-12-07
2021-12-08,120.5999984741211,121.2699966430664,119.45999908447266,120.81999969482422,118.73799133300781,210100,2021-12-08
2021-12-09,120.22000122070312,121.01000213623047,119.2300033569336,119.52999877929688,117.47023010253906,193600,2021-12-09
2021-12-10,120.08000183105469,120.97000122070312,119.48999786376953,119.73999786376953,117.67659759521484,168900,2021-12-10
2021-12-13,119.47000122070312,120.62000274658203,118.2699966430664,118.61000061035156,116.56608581542969,217900,2021-12-13
2021-12-14,118.0,119.30000305175781,116.79000091552734,116.94999694824219,114.93468475341797,292600,2021-12-14
2021-12-15,117.19000244140625,119.06999969482422,117.19000244140625,118.37000274658203,116.33020782470703,309800,2021-12-15
2021-12-16,119.23999786376953,120.19000244140625,118.26000213623047,118.69000244140625,116.64469909667969,242600,2021-12-16
2021-12-17,118.69000244140625,118.75,115.66999816894531,115.88999938964844,113.89295196533203,800100,2021-12-17
2021-12-20,114.81999969482422,115.97000122070312,112.37000274658203,113.66999816894531,111.7112045288086,291900,2021-12-20
2021-12-21,114.2300033569336,115.88999938964844,113.70999908447266,115.38999938964844,113.40157318115234,301800,2021-12-21
2021-12-22,115.05000305175781,116.27999877929688,114.41000366210938,115.38999938964844,113.40157318115234,379800,2021-12-22
2021-12-23,115.66999816894531,116.55999755859375,115.12999725341797,116.33000183105469,114.32537078857422,223800,2021-12-23
2021-12-27,116.63999938964844,120.02999877929688,116.5999984741211,119.88999938964844,117.82401275634766,352200,2021-12-27
2021-12-28,120.37000274658203,122.0999984741211,120.05999755859375,121.44000244140625,119.34730529785156,438700,2021-12-28
2021-12-29,121.44999694824219,123.5,121.44999694824219,122.0999984741211,119.99593353271484,953000,2021-12-29
2021-12-30,122.5,123.5,121.61000061035156,121.87999725341797,119.77972412109375,237200,2021-12-30
2021-12-31,121.61000061035156,122.87999725341797,121.2300033569336,122.4800033569336,120.36939239501953,226400,2021-12-31
